# xPDFsuite Configuration #
[PDF]
wavelength = 0.1
dataformat = QA
inputfile = BiMsol6_insitu_700 C-00745.xy
backgroundfile = Quartz2mm-dist500-00000.xy
mode = xray
bgscale = 0.0042
composition = Bi2Fe4O9
outputtype = gr
qmaxinst = 24.998449118
qmin = 0.1
qmax = 21.4986662415
rmax = 80.0
rmin = 0.0
rstep = 0.01
rpoly = 0.9


#### start data
#S 1
#L r($\AA$)  G($\AA^{-2}$)
0 0
0.01 0.00661746
0.02 0.0128643
0.03 0.0184234
0.04 0.0230097
0.05 0.0263837
0.06 0.0283622
0.07 0.0287444
0.08 0.02747
0.09 0.0246836
0.1 0.0205035
0.11 0.0151142
0.12 0.00875853
0.13 0.0017271
0.14 -0.00565522
0.15 -0.0129734
0.16 -0.019878
0.17 -0.0260403
0.18 -0.0311648
0.19 -0.035003
0.2 -0.0372989
0.21 -0.0378748
0.22 -0.0368238
0.23 -0.0342065
0.24 -0.0301633
0.25 -0.0249091
0.26 -0.0187257
0.27 -0.0119307
0.28 -0.00499396
0.29 0.00166663
0.3 0.00764501
0.31 0.0125535
0.32 0.0160419
0.33 0.0177548
0.34 0.0173426
0.35 0.0148456
0.36 0.0102508
0.37 0.00364911
0.38 -0.00476252
0.39 -0.014684
0.4 -0.0257708
0.41 -0.0374106
0.42 -0.0490013
0.43 -0.0599311
0.44 -0.0695654
0.45 -0.0772707
0.46 -0.0823766
0.47 -0.0840227
0.48 -0.0820087
0.49 -0.0759791
0.5 -0.0656989
0.51 -0.0510681
0.52 -0.0321318
0.53 -0.00881307
0.54 0.0183516
0.55 0.0486511
0.56 0.0814245
0.57 0.115897
0.58 0.151203
0.59 0.186395
0.6 0.220272
0.61 0.251882
0.62 0.280274
0.63 0.304556
0.64 0.323925
0.65 0.337693
0.66 0.344909
0.67 0.345185
0.68 0.338697
0.69 0.325457
0.7 0.305659
0.71 0.279674
0.72 0.24804
0.73 0.210974
0.74 0.169953
0.75 0.12594
0.76 0.0799556
0.77 0.0330564
0.78 -0.0136933
0.79 -0.0591425
0.8 -0.102138
0.81 -0.141903
0.82 -0.177685
0.83 -0.208872
0.84 -0.235003
0.85 -0.25578
0.86 -0.27051
0.87 -0.279759
0.88 -0.283843
0.89 -0.283146
0.9 -0.278184
0.91 -0.269576
0.92 -0.25794
0.93 -0.244067
0.94 -0.228965
0.95 -0.21342
0.96 -0.198184
0.97 -0.183953
0.98 -0.171345
0.99 -0.161118
1 -0.153567
1.01 -0.148896
1.02 -0.147237
1.03 -0.148603
1.04 -0.152884
1.05 -0.159934
1.06 -0.169533
1.07 -0.181037
1.08 -0.193986
1.09 -0.207883
1.1 -0.222222
1.11 -0.2365
1.12 -0.250166
1.13 -0.262768
1.14 -0.273975
1.15 -0.283512
1.16 -0.291183
1.17 -0.29688
1.18 -0.300545
1.19 -0.302097
1.2 -0.301891
1.21 -0.300147
1.22 -0.297134
1.23 -0.293162
1.24 -0.288557
1.25 -0.283657
1.26 -0.278839
1.27 -0.274404
1.28 -0.270603
1.29 -0.267637
1.3 -0.265648
1.31 -0.264721
1.32 -0.264976
1.33 -0.266229
1.34 -0.268355
1.35 -0.271178
1.36 -0.274484
1.37 -0.278026
1.38 -0.281525
1.39 -0.284676
1.4 -0.28723
1.41 -0.288963
1.42 -0.289688
1.43 -0.289262
1.44 -0.287599
1.45 -0.28453
1.46 -0.280239
1.47 -0.274839
1.48 -0.268494
1.49 -0.261415
1.5 -0.253855
1.51 -0.246099
1.52 -0.238494
1.53 -0.23135
1.54 -0.224955
1.55 -0.219572
1.56 -0.215423
1.57 -0.212685
1.58 -0.211638
1.59 -0.212199
1.6 -0.214314
1.61 -0.217886
1.62 -0.222752
1.63 -0.228688
1.64 -0.235436
1.65 -0.242649
1.66 -0.249913
1.67 -0.256858
1.68 -0.263116
1.69 -0.268332
1.7 -0.272178
1.71 -0.274195
1.72 -0.274233
1.73 -0.272179
1.74 -0.267943
1.75 -0.261507
1.76 -0.252925
1.77 -0.242275
1.78 -0.229664
1.79 -0.215537
1.8 -0.200205
1.81 -0.184013
1.82 -0.16733
1.83 -0.150529
1.84 -0.134031
1.85 -0.118216
1.86 -0.103383
1.87 -0.0897925
1.88 -0.0776543
1.89 -0.0671156
1.9 -0.0582844
1.91 -0.0513204
1.92 -0.0459843
1.93 -0.0421515
1.94 -0.039645
1.95 -0.0382445
1.96 -0.0376972
1.97 -0.0377488
1.98 -0.0380665
1.99 -0.0383508
2 -0.0383504
2.01 -0.0378463
2.02 -0.0366622
2.03 -0.0346695
2.04 -0.031703
2.05 -0.0278663
2.06 -0.0232312
2.07 -0.0179291
2.08 -0.0121466
2.09 -0.00611878
2.1 -0.000139758
2.11 0.00543548
2.12 0.0102886
2.13 0.0140963
2.14 0.0165476
2.15 0.0173563
2.16 0.0162728
2.17 0.0128485
2.18 0.00714795
2.19 -0.00087891
2.2 -0.0112301
2.21 -0.0238346
2.22 -0.0385535
2.23 -0.0552583
2.24 -0.0736841
2.25 -0.0933734
2.26 -0.113966
2.27 -0.135075
2.28 -0.156303
2.29 -0.17725
2.3 -0.197427
2.31 -0.216492
2.32 -0.234144
2.33 -0.250118
2.34 -0.264204
2.35 -0.276254
2.36 -0.286109
2.37 -0.293656
2.38 -0.299133
2.39 -0.302664
2.4 -0.304423
2.41 -0.304633
2.42 -0.303551
2.43 -0.3014
2.44 -0.298576
2.45 -0.295412
2.46 -0.2922
2.47 -0.289217
2.48 -0.28671
2.49 -0.284911
2.5 -0.284067
2.51 -0.284224
2.52 -0.285444
2.53 -0.287744
2.54 -0.291095
2.55 -0.295425
2.56 -0.300677
2.57 -0.306656
2.58 -0.313157
2.59 -0.319994
2.6 -0.326974
2.61 -0.333907
2.62 -0.340607
2.63 -0.346851
2.64 -0.352527
2.65 -0.357524
2.66 -0.361758
2.67 -0.365176
2.68 -0.367757
2.69 -0.369456
2.7 -0.37033
2.71 -0.370485
2.72 -0.370005
2.73 -0.368986
2.74 -0.367531
2.75 -0.365748
2.76 -0.363725
2.77 -0.361593
2.78 -0.359432
2.79 -0.35731
2.8 -0.355275
2.81 -0.353359
2.82 -0.351579
2.83 -0.349928
2.84 -0.348371
2.85 -0.346871
2.86 -0.34538
2.87 -0.343845
2.88 -0.342209
2.89 -0.340396
2.9 -0.338369
2.91 -0.33609
2.92 -0.333529
2.93 -0.330671
2.94 -0.327511
2.95 -0.324044
2.96 -0.320285
2.97 -0.316283
2.98 -0.312073
2.99 -0.307688
3 -0.303161
3.01 -0.298517
3.02 -0.293762
3.03 -0.288899
3.04 -0.283907
3.05 -0.278743
3.06 -0.273339
3.07 -0.267605
3.08 -0.26141
3.09 -0.254567
3.1 -0.246959
3.11 -0.238416
3.12 -0.22876
3.13 -0.217809
3.14 -0.205386
3.15 -0.191172
3.16 -0.175089
3.17 -0.15707
3.18 -0.13703
3.19 -0.114918
3.2 -0.090726
3.21 -0.0644475
3.22 -0.0360336
3.23 -0.00582214
3.24 0.0259995
3.25 0.0592007
3.26 0.093512
3.27 0.12863
3.28 0.164233
3.29 0.199902
3.3 0.235255
3.31 0.269923
3.32 0.303546
3.33 0.335778
3.34 0.366276
3.35 0.394517
3.36 0.420444
3.37 0.443851
3.38 0.464576
3.39 0.482504
3.4 0.497569
3.41 0.509571
3.42 0.518569
3.43 0.524797
3.44 0.528367
3.45 0.529423
3.46 0.528133
3.47 0.524684
3.48 0.519072
3.49 0.511747
3.5 0.502914
3.51 0.492774
3.52 0.481512
3.53 0.469303
3.54 0.45627
3.55 0.442558
3.56 0.428332
3.57 0.413685
3.58 0.398696
3.59 0.383428
3.6 0.367929
3.61 0.352226
3.62 0.336375
3.63 0.32041
3.64 0.304369
3.65 0.288291
3.66 0.272226
3.67 0.256239
3.68 0.240416
3.69 0.224837
3.7 0.209601
3.71 0.194816
3.72 0.180601
3.73 0.167082
3.74 0.154481
3.75 0.142888
3.76 0.132417
3.77 0.123192
3.78 0.115331
3.79 0.108941
3.8 0.104161
3.81 0.101172
3.82 0.0998863
3.83 0.100338
3.84 0.10254
3.85 0.106484
3.86 0.112146
3.87 0.119614
3.88 0.128736
3.89 0.139375
3.9 0.151441
3.91 0.164833
3.92 0.179444
3.93 0.195176
3.94 0.211978
3.95 0.229625
3.96 0.247997
3.97 0.266978
3.98 0.286452
3.99 0.306305
4 0.326436
4.01 0.346712
4.02 0.367013
4.03 0.38723
4.04 0.407254
4.05 0.426975
4.06 0.446278
4.07 0.464982
4.08 0.483019
4.09 0.500273
4.1 0.516628
4.11 0.531968
4.12 0.546178
4.13 0.559068
4.14 0.570521
4.15 0.580515
4.16 0.588964
4.17 0.595796
4.18 0.600952
4.19 0.604389
4.2 0.605878
4.21 0.605604
4.22 0.603583
4.23 0.599844
4.24 0.594431
4.25 0.5874
4.26 0.57875
4.27 0.568545
4.28 0.556979
4.29 0.544143
4.3 0.530129
4.31 0.515026
4.32 0.49892
4.33 0.4818
4.34 0.463819
4.35 0.445044
4.36 0.425516
4.37 0.405263
4.38 0.384305
4.39 0.362621
4.4 0.340181
4.41 0.317033
4.42 0.293166
4.43 0.268573
4.44 0.243251
4.45 0.217204
4.46 0.190386
4.47 0.162883
4.48 0.134766
4.49 0.106107
4.5 0.0769991
4.51 0.0475566
4.52 0.0179118
4.53 -0.0117637
4.54 -0.0412823
4.55 -0.0704604
4.56 -0.0991069
4.57 -0.127028
4.58 -0.15403
4.59 -0.179828
4.6 -0.204273
4.61 -0.22726
4.62 -0.248661
4.63 -0.268377
4.64 -0.286339
4.65 -0.302481
4.66 -0.316651
4.67 -0.329072
4.68 -0.339817
4.69 -0.348988
4.7 -0.356716
4.71 -0.363155
4.72 -0.368412
4.73 -0.372724
4.74 -0.376334
4.75 -0.379435
4.76 -0.382211
4.77 -0.384833
4.78 -0.387459
4.79 -0.390247
4.8 -0.393294
4.81 -0.396672
4.82 -0.400422
4.83 -0.404556
4.84 -0.409055
4.85 -0.413891
4.86 -0.418979
4.87 -0.424208
4.88 -0.429468
4.89 -0.434642
4.9 -0.439607
4.91 -0.444241
4.92 -0.448367
4.93 -0.451918
4.94 -0.454811
4.95 -0.456979
4.96 -0.458374
4.97 -0.458974
4.98 -0.458739
4.99 -0.457678
5 -0.455892
5.01 -0.453442
5.02 -0.450405
5.03 -0.446864
5.04 -0.44291
5.05 -0.438611
5.06 -0.434087
5.07 -0.429421
5.08 -0.424675
5.09 -0.4199
5.1 -0.415124
5.11 -0.410361
5.12 -0.405599
5.13 -0.400807
5.14 -0.395939
5.15 -0.390932
5.16 -0.385717
5.17 -0.380216
5.18 -0.37431
5.19 -0.367935
5.2 -0.361036
5.21 -0.353559
5.22 -0.345465
5.23 -0.336738
5.24 -0.327367
5.25 -0.31735
5.26 -0.306803
5.27 -0.295813
5.28 -0.284487
5.29 -0.272952
5.3 -0.261351
5.31 -0.249859
5.32 -0.238657
5.33 -0.227904
5.34 -0.217759
5.35 -0.208367
5.36 -0.19986
5.37 -0.192362
5.38 -0.186064
5.39 -0.180911
5.4 -0.176923
5.41 -0.174089
5.42 -0.172367
5.43 -0.171688
5.44 -0.172008
5.45 -0.173173
5.46 -0.174993
5.47 -0.177315
5.48 -0.179976
5.49 -0.182816
5.5 -0.185678
5.51 -0.188384
5.52 -0.190809
5.53 -0.192845
5.54 -0.194408
5.55 -0.195439
5.56 -0.195903
5.57 -0.19576
5.58 -0.19503
5.59 -0.193789
5.6 -0.192097
5.61 -0.190027
5.62 -0.187658
5.63 -0.185073
5.64 -0.182346
5.65 -0.179567
5.66 -0.176792
5.67 -0.174058
5.68 -0.171381
5.69 -0.168752
5.7 -0.166137
5.71 -0.163466
5.72 -0.160649
5.73 -0.15758
5.74 -0.154135
5.75 -0.150178
5.76 -0.145566
5.77 -0.140065
5.78 -0.133585
5.79 -0.126021
5.8 -0.117272
5.81 -0.10726
5.82 -0.0959372
5.83 -0.0832466
5.84 -0.0691507
5.85 -0.0538292
5.86 -0.0373869
5.87 -0.0199629
5.88 -0.0017281
5.89 0.0171198
5.9 0.0363745
5.91 0.0557484
5.92 0.0749867
5.93 0.0938471
5.94 0.112097
5.95 0.129518
5.96 0.145892
5.97 0.160949
5.98 0.174671
5.99 0.186976
6 0.197824
6.01 0.207219
6.02 0.215202
6.03 0.221765
6.04 0.22709
6.05 0.231385
6.06 0.234827
6.07 0.237606
6.08 0.239918
6.09 0.241961
6.1 0.243936
6.11 0.246033
6.12 0.248395
6.13 0.251131
6.14 0.254317
6.15 0.257991
6.16 0.262179
6.17 0.26682
6.18 0.271796
6.19 0.276981
6.2 0.282218
6.21 0.287325
6.22 0.292101
6.23 0.296248
6.24 0.299596
6.25 0.301938
6.26 0.303084
6.27 0.302864
6.28 0.301137
6.29 0.297705
6.3 0.292473
6.31 0.285528
6.32 0.276892
6.33 0.266628
6.34 0.254839
6.35 0.241662
6.36 0.227157
6.37 0.211655
6.38 0.195386
6.39 0.178573
6.4 0.161441
6.41 0.144212
6.42 0.127104
6.43 0.110339
6.44 0.094062
6.45 0.078396
6.46 0.063432
6.47 0.0492248
6.48 0.0357937
6.49 0.0231896
6.5 0.0112977
6.51 1.53003e-05
6.52 -0.0107663
6.53 -0.0211738
6.54 -0.0313457
6.55 -0.0414274
6.56 -0.0515828
6.57 -0.0619493
6.58 -0.072643
6.59 -0.0837601
6.6 -0.0953718
6.61 -0.107522
6.62 -0.120269
6.63 -0.133561
6.64 -0.147322
6.65 -0.161469
6.66 -0.175892
6.67 -0.190457
6.68 -0.205011
6.69 -0.219358
6.7 -0.233329
6.71 -0.246753
6.72 -0.259466
6.73 -0.271311
6.74 -0.282149
6.75 -0.291769
6.76 -0.300092
6.77 -0.307099
6.78 -0.312745
6.79 -0.317011
6.8 -0.3199
6.81 -0.321424
6.82 -0.321504
6.83 -0.320347
6.84 -0.318024
6.85 -0.314613
6.86 -0.310191
6.87 -0.304834
6.88 -0.298561
6.89 -0.291442
6.9 -0.283564
6.91 -0.274952
6.92 -0.265617
6.93 -0.255548
6.94 -0.244721
6.95 -0.233001
6.96 -0.220419
6.97 -0.206913
6.98 -0.192416
6.99 -0.176861
7 -0.160183
7.01 -0.142261
7.02 -0.123025
7.03 -0.102527
7.04 -0.0807581
7.05 -0.0577312
7.06 -0.0334812
7.07 -0.00806613
7.08 0.0185341
7.09 0.0461039
7.1 0.0744991
7.11 0.103573
7.12 0.133164
7.13 0.163102
7.14 0.193205
7.15 0.223265
7.16 0.253094
7.17 0.282516
7.18 0.311369
7.19 0.339502
7.2 0.366778
7.21 0.392978
7.22 0.41806
7.23 0.441969
7.24 0.464646
7.25 0.486049
7.26 0.506149
7.27 0.524894
7.28 0.5422
7.29 0.558187
7.3 0.572862
7.31 0.586232
7.32 0.598303
7.33 0.609075
7.34 0.618433
7.35 0.626418
7.36 0.633048
7.37 0.638286
7.38 0.642087
7.39 0.644395
7.4 0.645123
7.41 0.644061
7.42 0.641302
7.43 0.636779
7.44 0.630436
7.45 0.622222
7.46 0.6121
7.47 0.599911
7.48 0.585698
7.49 0.56957
7.5 0.551569
7.51 0.531761
7.52 0.51023
7.53 0.487079
7.54 0.462299
7.55 0.436222
7.56 0.40902
7.57 0.380877
7.58 0.351991
7.59 0.322565
7.6 0.292799
7.61 0.262933
7.62 0.233186
7.63 0.203754
7.64 0.174821
7.65 0.146558
7.66 0.11912
7.67 0.0927692
7.68 0.0675311
7.69 0.0434977
7.7 0.0207471
7.71 -0.000660745
7.72 -0.0206838
7.73 -0.0392284
7.74 -0.0562538
7.75 -0.0718643
7.76 -0.0860773
7.77 -0.0989195
7.78 -0.110425
7.79 -0.120635
7.8 -0.129474
7.81 -0.137099
7.82 -0.143583
7.83 -0.148977
7.84 -0.153333
7.85 -0.156702
7.86 -0.159104
7.87 -0.160557
7.88 -0.161187
7.89 -0.161043
7.9 -0.160174
7.91 -0.158631
7.92 -0.156462
7.93 -0.15367
7.94 -0.150345
7.95 -0.146553
7.96 -0.142342
7.97 -0.137757
7.98 -0.132846
7.99 -0.127645
8 -0.122186
8.01 -0.116532
8.02 -0.110717
8.03 -0.104773
8.04 -0.0987274
8.05 -0.0926042
8.06 -0.0864215
8.07 -0.080201
8.08 -0.0739598
8.09 -0.0677106
8.1 -0.0614656
8.11 -0.0552368
8.12 -0.0490376
8.13 -0.0428881
8.14 -0.0368029
8.15 -0.0308027
8.16 -0.0249121
8.17 -0.0191595
8.18 -0.0135774
8.19 -0.00821876
8.2 -0.00312542
8.21 0.00167082
8.22 0.0061266
8.23 0.0101988
8.24 0.013846
8.25 0.0170284
8.26 0.0196547
8.27 0.0217535
8.28 0.0233084
8.29 0.0243125
8.3 0.0247694
8.31 0.0246937
8.32 0.0240854
8.33 0.0229874
8.34 0.0214812
8.35 0.0196273
8.36 0.0174937
8.37 0.0151546
8.38 0.0126879
8.39 0.010176
8.4 0.00770836
8.41 0.00535719
8.42 0.00318663
8.43 0.00125069
8.44 -0.000408941
8.45 -0.0017505
8.46 -0.00275475
8.47 -0.00345353
8.48 -0.00387365
8.49 -0.00405862
8.5 -0.0040676
8.51 -0.00397391
8.52 -0.00387066
8.53 -0.00386597
8.54 -0.00406231
8.55 -0.0045641
8.56 -0.00547437
8.57 -0.00689124
8.58 -0.00892776
8.59 -0.0117038
8.6 -0.015228
8.61 -0.019542
8.62 -0.0246686
8.63 -0.0306102
8.64 -0.037349
8.65 -0.0449078
8.66 -0.0531756
8.67 -0.0620509
8.68 -0.0714405
8.69 -0.0812399
8.7 -0.0913368
8.71 -0.101616
8.72 -0.111949
8.73 -0.12221
8.74 -0.132295
8.75 -0.142109
8.76 -0.151573
8.77 -0.160626
8.78 -0.169183
8.79 -0.177233
8.8 -0.184792
8.81 -0.191874
8.82 -0.198511
8.83 -0.204746
8.84 -0.210633
8.85 -0.216218
8.86 -0.221608
8.87 -0.226871
8.88 -0.232076
8.89 -0.237282
8.9 -0.242539
8.91 -0.247891
8.92 -0.25336
8.93 -0.258941
8.94 -0.264618
8.95 -0.270356
8.96 -0.276104
8.97 -0.281795
8.98 -0.287326
8.99 -0.292611
9 -0.297556
9.01 -0.302062
9.02 -0.306031
9.03 -0.309373
9.04 -0.311966
9.05 -0.313725
9.06 -0.31465
9.07 -0.314713
9.08 -0.313908
9.09 -0.312248
9.1 -0.30977
9.11 -0.30646
9.12 -0.302478
9.13 -0.297929
9.14 -0.292926
9.15 -0.287589
9.16 -0.282043
9.17 -0.276419
9.18 -0.27086
9.19 -0.265485
9.2 -0.260396
9.21 -0.255681
9.22 -0.251408
9.23 -0.247626
9.24 -0.244411
9.25 -0.241724
9.26 -0.239532
9.27 -0.237789
9.28 -0.236433
9.29 -0.235386
9.3 -0.234561
9.31 -0.233852
9.32 -0.233137
9.33 -0.232316
9.34 -0.23129
9.35 -0.229973
9.36 -0.22829
9.37 -0.226143
9.38 -0.223513
9.39 -0.220397
9.4 -0.216803
9.41 -0.212756
9.42 -0.208302
9.43 -0.203497
9.44 -0.198411
9.45 -0.193166
9.46 -0.18786
9.47 -0.182593
9.48 -0.177461
9.49 -0.172556
9.5 -0.167986
9.51 -0.163812
9.52 -0.160063
9.53 -0.15676
9.54 -0.153901
9.55 -0.151459
9.56 -0.149388
9.57 -0.147631
9.58 -0.146049
9.59 -0.144525
9.6 -0.142925
9.61 -0.141106
9.62 -0.138916
9.63 -0.136162
9.64 -0.132677
9.65 -0.128351
9.66 -0.12306
9.67 -0.116696
9.68 -0.109171
9.69 -0.100422
9.7 -0.0902623
9.71 -0.0788295
9.72 -0.066148
9.73 -0.0522667
9.74 -0.037259
9.75 -0.0212208
9.76 -0.00422715
9.77 0.0135801
9.78 0.0319966
9.79 0.0508702
9.8 0.0700462
9.81 0.089372
9.82 0.1087
9.83 0.127866
9.84 0.146746
9.85 0.165236
9.86 0.183248
9.87 0.200711
9.88 0.217575
9.89 0.23378
9.9 0.249285
9.91 0.264146
9.92 0.278377
9.93 0.292006
9.94 0.305067
9.95 0.317601
9.96 0.329605
9.97 0.341156
9.98 0.352302
9.99 0.363068
10 0.373473
10.01 0.383528
10.02 0.39322
10.03 0.402514
10.04 0.411416
10.05 0.419894
10.06 0.427908
10.07 0.435411
10.08 0.442357
10.09 0.448641
10.1 0.454239
10.11 0.459131
10.12 0.463282
10.13 0.466667
10.14 0.46927
10.15 0.471076
10.16 0.472036
10.17 0.472254
10.18 0.471772
10.19 0.470643
10.2 0.468932
10.21 0.466713
10.22 0.464045
10.23 0.461038
10.24 0.457804
10.25 0.454431
10.26 0.451009
10.27 0.44762
10.28 0.44434
10.29 0.441258
10.3 0.438412
10.31 0.435838
10.32 0.433559
10.33 0.431583
10.34 0.429905
10.35 0.428519
10.36 0.427382
10.37 0.426429
10.38 0.425601
10.39 0.424828
10.4 0.424035
10.41 0.423141
10.42 0.422031
10.43 0.420632
10.44 0.41886
10.45 0.416635
10.46 0.41388
10.47 0.410524
10.48 0.406466
10.49 0.401631
10.5 0.396017
10.51 0.389587
10.52 0.382313
10.53 0.374175
10.54 0.365163
10.55 0.355186
10.56 0.344327
10.57 0.332616
10.58 0.320075
10.59 0.306735
10.6 0.292631
10.61 0.277779
10.62 0.262209
10.63 0.246029
10.64 0.2293
10.65 0.212085
10.66 0.19445
10.67 0.176465
10.68 0.158187
10.69 0.139718
10.7 0.12114
10.71 0.102532
10.72 0.0839685
10.73 0.0655241
10.74 0.047277
10.75 0.0293182
10.76 0.011689
10.77 -0.00555821
10.78 -0.0223792
10.79 -0.0387387
10.8 -0.0546117
10.81 -0.0699431
10.82 -0.0847523
10.83 -0.0990685
10.84 -0.112913
10.85 -0.126318
10.86 -0.139323
10.87 -0.151974
10.88 -0.164309
10.89 -0.176423
10.9 -0.188382
10.91 -0.200249
10.92 -0.212086
10.93 -0.223952
10.94 -0.235908
10.95 -0.248
10.96 -0.260253
10.97 -0.272688
10.98 -0.285308
10.99 -0.298105
11 -0.311057
11.01 -0.324134
11.02 -0.337266
11.03 -0.350386
11.04 -0.363418
11.05 -0.376277
11.06 -0.388872
11.07 -0.401079
11.08 -0.412784
11.09 -0.423913
11.1 -0.434373
11.11 -0.444078
11.12 -0.45295
11.13 -0.46092
11.14 -0.467823
11.15 -0.473713
11.16 -0.47857
11.17 -0.482384
11.18 -0.485155
11.19 -0.486898
11.2 -0.487595
11.21 -0.487266
11.22 -0.486029
11.23 -0.483936
11.24 -0.481047
11.25 -0.477418
11.26 -0.473109
11.27 -0.468119
11.28 -0.462557
11.29 -0.456477
11.3 -0.449918
11.31 -0.442908
11.32 -0.435471
11.33 -0.427603
11.34 -0.419291
11.35 -0.410566
11.36 -0.401418
11.37 -0.391834
11.38 -0.381798
11.39 -0.371293
11.4 -0.360258
11.41 -0.348709
11.42 -0.336652
11.43 -0.324085
11.44 -0.311013
11.45 -0.297452
11.46 -0.283414
11.47 -0.268905
11.48 -0.254013
11.49 -0.238788
11.5 -0.223291
11.51 -0.207586
11.52 -0.191744
11.53 -0.17584
11.54 -0.159962
11.55 -0.144188
11.56 -0.128591
11.57 -0.11324
11.58 -0.0982015
11.59 -0.0835381
11.6 -0.0693451
11.61 -0.0556239
11.62 -0.0424073
11.63 -0.0297199
11.64 -0.0175781
11.65 -0.00599098
11.66 0.00500245
11.67 0.0154153
11.68 0.0252848
11.69 0.0346231
11.7 0.0434438
11.71 0.0517617
11.72 0.0595898
11.73 0.0668886
11.74 0.0737243
11.75 0.0801047
11.76 0.0860347
11.77 0.0915165
11.78 0.0965501
11.79 0.101108
11.8 0.105184
11.81 0.108802
11.82 0.11196
11.83 0.114655
11.84 0.116891
11.85 0.118671
11.86 0.119959
11.87 0.120816
11.88 0.121266
11.89 0.121334
11.9 0.121051
11.91 0.12045
11.92 0.119559
11.93 0.118416
11.94 0.117079
11.95 0.115588
11.96 0.113977
11.97 0.112277
11.98 0.11051
11.99 0.10869
12 0.106825
12.01 0.104909
12.02 0.102923
12.03 0.100837
12.04 0.0986081
12.05 0.0961757
12.06 0.0934522
12.07 0.0903803
12.08 0.0868785
12.09 0.0828611
12.1 0.0782402
12.11 0.0729286
12.12 0.066769
12.13 0.059718
12.14 0.0517344
12.15 0.0427654
12.16 0.0327725
12.17 0.0217342
12.18 0.00962507
12.19 -0.00360949
12.2 -0.017827
12.21 -0.0329644
12.22 -0.0489386
12.23 -0.0656479
12.24 -0.0829729
12.25 -0.100803
12.26 -0.118954
12.27 -0.137244
12.28 -0.155508
12.29 -0.173574
12.3 -0.191273
12.31 -0.208428
12.32 -0.224795
12.33 -0.240281
12.34 -0.254751
12.35 -0.26808
12.36 -0.28016
