# xPDFsuite Configuration #
# [PDF]
# wavelength = 0.1
# dataformat = Qnm
# inputfile = SH2_Ce6_DMSO_60C-00001.chi
# backgroundfile = SH1_Kapton-00001.chi
# mode = xray
# bgscale = 1.0
# composition = CeO2
# outputtype = gr
# qmaxinst = 32.0
# qmin = 0.7
# qmax = 24.0
# rmax = 60.0
# rmin = 0.0
# rstep = 0.01
# rpoly = 0.9
#
#
#### start data
#S 1
#L r($\AA$)  G($\AA^{-2}$)
0 0
0.01 0.011351
0.02 0.0221373
0.03 0.0318859
0.04 0.0401645
0.05 0.0463291
0.06 0.0502131
0.07 0.0516994
0.08 0.0506977
0.09 0.0470097
0.1 0.0408314
0.11 0.0325857
0.12 0.022606
0.13 0.0112615
0.14 -0.000921929
0.15 -0.0132787
0.16 -0.0252561
0.17 -0.036278
0.18 -0.0455462
0.19 -0.0527521
0.2 -0.0575035
0.21 -0.0594976
0.22 -0.0581082
0.23 -0.0536308
0.24 -0.0462135
0.25 -0.0360729
0.26 -0.0233531
0.27 -0.00873786
0.28 0.00704129
0.29 0.0232994
0.3 0.0392137
0.31 0.053817
0.32 0.0663608
0.33 0.0760876
0.34 0.0821645
0.35 0.0834998
0.36 0.0801225
0.37 0.0717382
0.38 0.0582201
0.39 0.0388664
0.4 0.0147825
0.41 -0.0135019
0.42 -0.0452901
0.43 -0.0799004
0.44 -0.115898
0.45 -0.151988
0.46 -0.186889
0.47 -0.218931
0.48 -0.246523
0.49 -0.268585
0.5 -0.283911
0.51 -0.290998
0.52 -0.288245
0.53 -0.275927
0.54 -0.253653
0.55 -0.221169
0.56 -0.177331
0.57 -0.124154
0.58 -0.0624255
0.59 0.00681366
0.6 0.0829376
0.61 0.163517
0.62 0.246723
0.63 0.330768
0.64 0.413511
0.65 0.49282
0.66 0.567007
0.67 0.634419
0.68 0.692944
0.69 0.740787
0.7 0.777824
0.71 0.803377
0.72 0.816727
0.73 0.81659
0.74 0.80487
0.75 0.782175
0.76 0.749369
0.77 0.706369
0.78 0.65597
0.79 0.599717
0.8 0.539167
0.81 0.475786
0.82 0.411588
0.83 0.34815
0.84 0.286817
0.85 0.229117
0.86 0.176188
0.87 0.128425
0.88 0.0862652
0.89 0.050157
0.9 0.0204139
0.91 -0.00398945
0.92 -0.0235962
0.93 -0.0390875
0.94 -0.0509839
0.95 -0.0608242
0.96 -0.0695863
0.97 -0.0782378
0.98 -0.0879152
0.99 -0.0994521
1 -0.113477
1.01 -0.130487
1.02 -0.15114
1.03 -0.175446
1.04 -0.203075
1.05 -0.233732
1.06 -0.267077
1.07 -0.302449
1.08 -0.338862
1.09 -0.375505
1.1 -0.4115
1.11 -0.445711
1.12 -0.477481
1.13 -0.506129
1.14 -0.53109
1.15 -0.551292
1.16 -0.567047
1.17 -0.578379
1.18 -0.585435
1.19 -0.588146
1.2 -0.587356
1.21 -0.583911
1.22 -0.578566
1.23 -0.572141
1.24 -0.565678
1.25 -0.560105
1.26 -0.556232
1.27 -0.554906
1.28 -0.557067
1.29 -0.562819
1.3 -0.572411
1.31 -0.585934
1.32 -0.603808
1.33 -0.625069
1.34 -0.6492
1.35 -0.675538
1.36 -0.703366
1.37 -0.731524
1.38 -0.759023
1.39 -0.784908
1.4 -0.807925
1.41 -0.827125
1.42 -0.841961
1.43 -0.851835
1.44 -0.855985
1.45 -0.853861
1.46 -0.846016
1.47 -0.832621
1.48 -0.813929
1.49 -0.79001
1.5 -0.762289
1.51 -0.731589
1.52 -0.698816
1.53 -0.664909
1.54 -0.631109
1.55 -0.59837
1.56 -0.56757
1.57 -0.539864
1.58 -0.515848
1.59 -0.495849
1.6 -0.480185
1.61 -0.469342
1.62 -0.463345
1.63 -0.46158
1.64 -0.463693
1.65 -0.469309
1.66 -0.477985
1.67 -0.488653
1.68 -0.500616
1.69 -0.513174
1.7 -0.525538
1.71 -0.537042
1.72 -0.547165
1.73 -0.555486
1.74 -0.561405
1.75 -0.564923
1.76 -0.566094
1.77 -0.565012
1.78 -0.561728
1.79 -0.556652
1.8 -0.550328
1.81 -0.543206
1.82 -0.53577
1.83 -0.528597
1.84 -0.522156
1.85 -0.516844
1.86 -0.513019
1.87 -0.51117
1.88 -0.511186
1.89 -0.513077
1.9 -0.516743
1.91 -0.522155
1.92 -0.528753
1.93 -0.536082
1.94 -0.543648
1.95 -0.550802
1.96 -0.55686
1.97 -0.561234
1.98 -0.563318
1.99 -0.562288
2 -0.55742
2.01 -0.548514
2.02 -0.535158
2.03 -0.516849
2.04 -0.492811
2.05 -0.463513
2.06 -0.428878
2.07 -0.388899
2.08 -0.342833
2.09 -0.291651
2.1 -0.235573
2.11 -0.17485
2.12 -0.10929
2.13 -0.0396409
2.14 0.0335493
2.15 0.10987
2.16 0.189064
2.17 0.270525
2.18 0.353529
2.19 0.437509
2.2 0.521836
2.21 0.605703
2.22 0.688365
2.23 0.769052
2.24 0.846905
2.25 0.920438
2.26 0.98921
2.27 1.05232
2.28 1.10888
2.29 1.15689
2.3 1.19625
2.31 1.22642
2.32 1.24675
2.33 1.25565
2.34 1.25312
2.35 1.23965
2.36 1.21525
2.37 1.17947
2.38 1.13254
2.39 1.07614
2.4 1.01114
2.41 0.938397
2.42 0.858656
2.43 0.774224
2.44 0.686522
2.45 0.597018
2.46 0.50735
2.47 0.419164
2.48 0.333783
2.49 0.252405
2.5 0.176763
2.51 0.107423
2.52 0.0447188
2.53 -0.0110226
2.54 -0.0591488
2.55 -0.0998904
2.56 -0.13425
2.57 -0.162862
2.58 -0.186356
2.59 -0.205579
2.6 -0.222136
2.61 -0.237124
2.62 -0.251639
2.63 -0.266962
2.64 -0.284036
2.65 -0.303638
2.66 -0.326379
2.67 -0.353191
2.68 -0.383897
2.69 -0.418342
2.7 -0.456267
2.71 -0.49746
2.72 -0.541067
2.73 -0.586115
2.74 -0.631737
2.75 -0.676931
2.76 -0.720552
2.77 -0.761789
2.78 -0.799867
2.79 -0.834022
2.8 -0.86322
2.81 -0.887739
2.82 -0.907511
2.83 -0.922662
2.84 -0.932938
2.85 -0.939527
2.86 -0.943166
2.87 -0.944654
2.88 -0.944826
2.89 -0.944828
2.9 -0.9456
2.91 -0.947966
2.92 -0.952878
2.93 -0.961031
2.94 -0.972582
2.95 -0.987709
2.96 -1.00653
2.97 -1.02902
2.98 -1.0543
2.99 -1.08175
3 -1.11064
3.01 -1.14007
3.02 -1.16897
3.03 -1.19645
3.04 -1.2217
3.05 -1.24353
3.06 -1.26158
3.07 -1.27561
3.08 -1.28546
3.09 -1.29086
3.1 -1.29229
3.11 -1.2906
3.12 -1.28655
3.13 -1.28103
3.14 -1.27526
3.15 -1.27046
3.16 -1.26775
3.17 -1.26826
3.18 -1.27355
3.19 -1.28387
3.2 -1.29973
3.21 -1.32137
3.22 -1.34959
3.23 -1.38324
3.24 -1.42156
3.25 -1.46366
3.26 -1.50853
3.27 -1.55447
3.28 -1.59989
3.29 -1.6433
3.3 -1.68289
3.31 -1.71698
3.32 -1.74477
3.33 -1.76539
3.34 -1.77795
3.35 -1.78152
3.36 -1.77728
3.37 -1.7658
3.38 -1.74797
3.39 -1.72439
3.4 -1.69751
3.41 -1.66897
3.42 -1.64045
3.43 -1.61399
3.44 -1.59108
3.45 -1.57277
3.46 -1.55979
3.47 -1.55284
3.48 -1.5513
3.49 -1.55361
3.5 -1.55792
3.51 -1.56153
3.52 -1.56037
3.53 -1.55062
3.54 -1.52783
3.55 -1.4868
3.56 -1.41872
3.57 -1.32122
3.58 -1.18932
3.59 -1.01838
3.6 -0.797679
3.61 -0.528817
3.62 -0.210412
3.63 0.158693
3.64 0.58368
3.65 1.06016
3.66 1.58224
3.67 2.14548
3.68 2.74607
3.69 3.37604
3.7 4.02383
3.71 4.6801
3.72 5.33436
3.73 5.97305
3.74 6.5859
3.75 7.16224
3.76 7.69176
3.77 8.15449
3.78 8.5496
3.79 8.86999
3.8 9.10974
3.81 9.25374
3.82 9.30619
3.83 9.26993
3.84 9.14617
3.85 8.93095
3.86 8.63084
3.87 8.25856
3.88 7.82176
3.89 7.32689
3.9 6.78245
3.91 6.20464
3.92 5.60387
3.93 4.99052
3.94 4.37597
3.95 3.77103
3.96 3.18428
3.97 2.62336
3.98 2.10002
3.99 1.61632
4 1.17515
4.01 0.7789
4.02 0.433392
4.03 0.136376
4.04 -0.11634
4.05 -0.327125
4.06 -0.496829
4.07 -0.628955
4.08 -0.731376
4.09 -0.808524
4.1 -0.864382
4.11 -0.902301
4.12 -0.928789
4.13 -0.947338
4.14 -0.960933
4.15 -0.971877
4.16 -0.982411
4.17 -0.993532
4.18 -1.00564
4.19 -1.01863
4.2 -1.03165
4.21 -1.04355
4.22 -1.05299
4.23 -1.05797
4.24 -1.05662
4.25 -1.04777
4.26 -1.03009
4.27 -1.00198
4.28 -0.961796
4.29 -0.910381
4.3 -0.84778
4.31 -0.774329
4.32 -0.689608
4.33 -0.596487
4.34 -0.49652
4.35 -0.391497
4.36 -0.283253
4.37 -0.174499
4.38 -0.0674138
4.39 0.0359532
4.4 0.132935
4.41 0.221691
4.42 0.301146
4.43 0.370115
4.44 0.426963
4.45 0.470588
4.46 0.501943
4.47 0.521113
4.48 0.528159
4.49 0.522543
4.5 0.506666
4.51 0.481475
4.52 0.448003
4.53 0.406417
4.54 0.35894
4.55 0.306688
4.56 0.250631
4.57 0.191406
4.58 0.130081
4.59 0.0673958
4.6 0.00384425
4.61 -0.0602078
4.62 -0.124444
4.63 -0.188664
4.64 -0.252763
4.65 -0.31667
4.66 -0.380322
4.67 -0.443705
4.68 -0.506762
4.69 -0.569405
4.7 -0.631404
4.71 -0.692645
4.72 -0.752905
4.73 -0.811923
4.74 -0.869168
4.75 -0.924439
4.76 -0.977472
4.77 -1.02797
4.78 -1.07538
4.79 -1.11952
4.8 -1.16043
4.81 -1.19802
4.82 -1.2321
4.83 -1.2626
4.84 -1.29004
4.85 -1.31464
4.86 -1.33664
4.87 -1.35619
4.88 -1.37401
4.89 -1.39051
4.9 -1.40608
4.91 -1.42109
4.92 -1.43601
4.93 -1.45116
4.94 -1.46677
4.95 -1.48313
4.96 -1.50034
4.97 -1.51837
4.98 -1.5372
4.99 -1.55674
5 -1.5768
5.01 -1.59706
5.02 -1.61723
5.03 -1.63693
5.04 -1.65564
5.05 -1.67301
5.06 -1.68859
5.07 -1.70191
5.08 -1.71197
5.09 -1.71864
5.1 -1.72138
5.11 -1.71965
5.12 -1.71219
5.13 -1.69877
5.14 -1.67901
5.15 -1.65229
5.16 -1.61731
5.17 -1.57355
5.18 -1.52101
5.19 -1.45925
5.2 -1.38732
5.21 -1.30439
5.22 -1.21135
5.23 -1.10824
5.24 -0.995076
5.25 -0.871175
5.26 -0.738617
5.27 -0.59831
5.28 -0.451396
5.29 -0.298733
5.3 -0.142835
5.31 0.0143324
5.32 0.170723
5.33 0.32358
5.34 0.470352
5.35 0.608878
5.36 0.736828
5.37 0.850892
5.38 0.948247
5.39 1.02825
5.4 1.08931
5.41 1.12942
5.42 1.1456
5.43 1.14005
5.44 1.1128
5.45 1.06428
5.46 0.992335
5.47 0.901679
5.48 0.794146
5.49 0.671851
5.5 0.536008
5.51 0.390722
5.52 0.23926
5.53 0.0844923
5.54 -0.0705049
5.55 -0.222424
5.56 -0.368714
5.57 -0.50705
5.58 -0.634794
5.59 -0.749262
5.6 -0.850383
5.61 -0.937309
5.62 -1.00937
5.63 -1.06456
5.64 -1.10543
5.65 -1.13268
5.66 -1.14726
5.67 -1.14896
5.68 -1.14069
5.69 -1.12418
5.7 -1.10096
5.71 -1.07214
5.72 -1.03964
5.73 -1.00502
5.74 -0.969408
5.75 -0.933808
5.76 -0.899113
5.77 -0.865808
5.78 -0.834207
5.79 -0.804516
5.8 -0.776906
5.81 -0.75099
5.82 -0.726561
5.83 -0.703377
5.84 -0.681326
5.85 -0.660052
5.86 -0.639446
5.87 -0.619505
5.88 -0.60046
5.89 -0.582551
5.9 -0.566139
5.91 -0.551727
5.92 -0.540181
5.93 -0.532297
5.94 -0.528561
5.95 -0.529664
5.96 -0.536533
5.97 -0.550227
5.98 -0.570499
5.99 -0.597592
6 -0.631636
6.01 -0.673401
6.02 -0.721445
6.03 -0.775169
6.04 -0.833787
6.05 -0.896734
6.06 -0.962314
6.07 -1.02922
6.08 -1.09619
6.09 -1.16174
6.1 -1.22448
6.11 -1.28344
6.12 -1.33767
6.13 -1.38603
6.14 -1.42769
6.15 -1.46295
6.16 -1.49178
6.17 -1.51421
6.18 -1.53012
6.19 -1.54096
6.2 -1.54747
6.21 -1.55048
6.22 -1.55055
6.23 -1.54896
6.24 -1.54639
6.25 -1.54333
6.26 -1.54004
6.27 -1.53645
6.28 -1.53216
6.29 -1.52642
6.3 -1.51778
6.31 -1.50442
6.32 -1.4847
6.33 -1.45648
6.34 -1.4168
6.35 -1.36165
6.36 -1.28977
6.37 -1.19859
6.38 -1.0855
6.39 -0.944385
6.4 -0.776902
6.41 -0.581677
6.42 -0.357829
6.43 -0.101308
6.44 0.184474
6.45 0.497449
6.46 0.835745
6.47 1.19865
6.48 1.5816
6.49 1.97911
6.5 2.38666
6.51 2.79926
6.52 3.21051
6.53 3.6144
6.54 4.00524
6.55 4.37683
6.56 4.71994
6.57 5.03226
6.58 5.30912
6.59 5.54637
6.6 5.73372
6.61 5.87387
6.62 5.9656
6.63 6.00788
6.64 5.99509
6.65 5.93109
6.66 5.82003
6.67 5.66429
6.68 5.46411
6.69 5.22352
6.7 4.95037
6.71 4.64933
6.72 4.3247
6.73 3.98104
6.74 3.62619
6.75 3.26525
6.76 2.90318
6.77 2.5459
6.78 2.19757
6.79 1.86198
6.8 1.54242
6.81 1.24436
6.82 0.968507
6.83 0.71572
6.84 0.486969
6.85 0.284915
6.86 0.108908
6.87 -0.0434236
6.88 -0.173115
6.89 -0.280483
6.9 -0.366517
6.91 -0.43538
6.92 -0.489144
6.93 -0.529772
6.94 -0.558467
6.95 -0.579123
6.96 -0.593779
6.97 -0.604347
6.98 -0.612474
6.99 -0.620175
7 -0.628773
7.01 -0.639332
7.02 -0.653064
7.03 -0.670503
7.04 -0.691825
7.05 -0.717173
7.06 -0.746777
7.07 -0.780457
7.08 -0.817488
7.09 -0.857407
7.1 -0.899731
7.11 -0.943924
7.12 -0.989088
7.13 -1.03461
7.14 -1.07989
7.15 -1.12418
7.16 -1.16706
7.17 -1.20811
7.18 -1.24701
7.19 -1.28316
7.2 -1.31658
7.21 -1.34725
7.22 -1.37516
7.23 -1.40008
7.24 -1.42213
7.25 -1.44161
7.26 -1.4586
7.27 -1.47309
7.28 -1.48499
7.29 -1.49459
7.3 -1.50182
7.31 -1.50656
7.32 -1.50821
7.33 -1.50685
7.34 -1.50212
7.35 -1.49356
7.36 -1.47998
7.37 -1.46123
7.38 -1.43676
7.39 -1.40593
7.4 -1.36731
7.41 -1.32046
7.42 -1.26525
7.43 -1.20121
7.44 -1.12732
7.45 -1.04309
7.46 -0.949339
7.47 -0.846237
7.48 -0.733868
7.49 -0.612068
7.5 -0.482829
7.51 -0.347188
7.52 -0.206379
7.53 -0.0614856
7.54 0.0851169
7.55 0.231645
7.56 0.376239
7.57 0.516282
7.58 0.64982
7.59 0.775127
7.6 0.89038
7.61 0.99277
7.62 1.08054
7.63 1.15337
7.64 1.21025
7.65 1.24963
7.66 1.26988
7.67 1.27288
7.68 1.25891
7.69 1.22838
7.7 1.18018
7.71 1.11799
7.72 1.04327
7.73 0.957699
7.74 0.862143
7.75 0.759826
7.76 0.652989
7.77 0.543648
7.78 0.433918
7.79 0.32601
7.8 0.221618
7.81 0.122242
7.82 0.0296312
7.83 -0.0547544
7.84 -0.130858
7.85 -0.198242
7.86 -0.256492
7.87 -0.304784
7.88 -0.344696
7.89 -0.376811
7.9 -0.401882
7.91 -0.420023
7.92 -0.433242
7.93 -0.442667
7.94 -0.449388
7.95 -0.454406
7.96 -0.459002
7.97 -0.464147
7.98 -0.470637
7.99 -0.479345
8 -0.490897
8.01 -0.505463
8.02 -0.523253
8.03 -0.544485
8.04 -0.569345
8.05 -0.59727
8.06 -0.628012
8.07 -0.661282
8.08 -0.696995
8.09 -0.734409
8.1 -0.773157
8.11 -0.812881
8.12 -0.853289
8.13 -0.893964
8.14 -0.934605
8.15 -0.974948
8.16 -1.01465
8.17 -1.05341
8.18 -1.09097
8.19 -1.12696
8.2 -1.16084
8.21 -1.1919
8.22 -1.21971
8.23 -1.24355
8.24 -1.26245
8.25 -1.27461
8.26 -1.27963
8.27 -1.27634
8.28 -1.26352
8.29 -1.23811
8.3 -1.20015
8.31 -1.14858
8.32 -1.08231
8.33 -0.998532
8.34 -0.897366
8.35 -0.779142
8.36 -0.643689
8.37 -0.48991
8.38 -0.318284
8.39 -0.131247
8.4 0.0698554
8.41 0.283704
8.42 0.508663
8.43 0.74079
8.44 0.977321
8.45 1.21526
8.46 1.45065
8.47 1.68012
8.48 1.90037
8.49 2.10816
8.5 2.298
8.51 2.46808
8.52 2.61638
8.53 2.74071
8.54 2.83678
8.55 2.9036
8.56 2.94224
8.57 2.95242
8.58 2.93285
8.59 2.88302
8.6 2.80718
8.61 2.70699
8.62 2.58412
8.63 2.43884
8.64 2.27687
8.65 2.10098
8.66 1.91402
8.67 1.7181
8.68 1.51743
8.69 1.31483
8.7 1.11278
8.71 0.914097
8.72 0.720946
8.73 0.534796
8.74 0.356994
8.75 0.189308
8.76 0.0327639
8.77 -0.113133
8.78 -0.248274
8.79 -0.372419
8.8 -0.48503
8.81 -0.587965
8.82 -0.681864
8.83 -0.767442
8.84 -0.844377
8.85 -0.914722
8.86 -0.97923
8.87 -1.0386
8.88 -1.09297
8.89 -1.14335
8.9 -1.19036
8.91 -1.23434
8.92 -1.27534
8.93 -1.31362
8.94 -1.34949
8.95 -1.38299
8.96 -1.414
8.97 -1.44237
8.98 -1.4683
8.99 -1.49175
9 -1.51263
9.01 -1.53055
9.02 -1.54586
9.03 -1.55855
9.04 -1.56861
9.05 -1.57568
9.06 -1.58007
9.07 -1.58184
9.08 -1.58098
9.09 -1.57718
9.1 -1.57052
9.11 -1.56108
9.12 -1.54876
9.13 -1.53327
9.14 -1.51436
9.15 -1.49219
9.16 -1.46664
9.17 -1.43749
9.18 -1.40429
9.19 -1.36747
9.2 -1.32705
9.21 -1.28312
9.22 -1.23532
9.23 -1.18446
9.24 -1.13087
9.25 -1.07499
9.26 -1.01716
9.27 -0.958198
9.28 -0.898827
9.29 -0.839744
9.3 -0.781826
9.31 -0.725959
9.32 -0.672783
9.33 -0.622998
9.34 -0.577474
9.35 -0.537195
9.36 -0.502152
9.37 -0.472711
9.38 -0.449193
9.39 -0.432571
9.4 -0.421931
9.41 -0.417127
9.42 -0.4179
9.43 -0.424525
9.44 -0.435885
9.45 -0.451286
9.46 -0.470111
9.47 -0.491909
9.48 -0.515774
9.49 -0.540877
9.5 -0.566574
9.51 -0.592226
9.52 -0.617178
9.53 -0.640996
9.54 -0.663317
9.55 -0.68381
9.56 -0.702067
9.57 -0.71827
9.58 -0.732445
9.59 -0.744695
9.6 -0.754964
9.61 -0.763778
9.62 -0.771447
9.63 -0.778292
9.64 -0.784631
9.65 -0.79088
9.66 -0.797365
9.67 -0.80435
9.68 -0.81212
9.69 -0.820843
9.7 -0.830501
9.71 -0.841048
9.72 -0.852361
9.73 -0.864163
9.74 -0.875975
9.75 -0.887284
9.76 -0.897455
9.77 -0.905343
9.78 -0.910271
9.79 -0.911264
9.8 -0.907261
9.81 -0.896159
9.82 -0.877204
9.83 -0.849336
9.84 -0.811298
9.85 -0.760634
9.86 -0.696268
9.87 -0.61785
9.88 -0.52438
9.89 -0.414006
9.9 -0.285237
9.91 -0.13929
9.92 0.0240153
9.93 0.204983
9.94 0.405063
9.95 0.6211
9.96 0.851996
9.97 1.09633
9.98 1.35378
9.99 1.6204
10 1.8936
10.01 2.1707
10.02 2.44858
10.03 2.72355
10.04 2.99238
10.05 3.25181
10.06 3.49739
10.07 3.72519
10.08 3.93337
10.09 4.1192
10.1 4.27915
10.11 4.40858
10.12 4.50895
10.13 4.57911
10.14 4.61823
10.15 4.62128
10.16 4.59354
10.17 4.53589
10.18 4.4496
10.19 4.33322
10.2 4.19176
10.21 4.02859
10.22 3.84642
10.23 3.64699
10.24 3.43425
10.25 3.21234
10.26 2.98425
10.27 2.75286
10.28 2.52135
10.29 2.29241
10.3 2.06819
10.31 1.8507
10.32 1.64266
10.33 1.44414
10.34 1.25589
10.35 1.07834
10.36 0.913165
10.37 0.758789
10.38 0.614598
10.39 0.479989
10.4 0.355092
10.41 0.238452
10.42 0.128744
10.43 0.0251198
10.44 -0.0728955
10.45 -0.16606
10.46 -0.255396
10.47 -0.341339
10.48 -0.424084
10.49 -0.503523
10.5 -0.58001
10.51 -0.653395
10.52 -0.723429
10.53 -0.789127
10.54 -0.850627
10.55 -0.907508
10.56 -0.959348
10.57 -1.00504
10.58 -1.04468
10.59 -1.07823
10.6 -1.10555
10.61 -1.12607
10.62 -1.13999
10.63 -1.148
10.64 -1.15042
10.65 -1.14745
10.66 -1.13945
10.67 -1.12759
10.68 -1.11251
10.69 -1.09488
10.7 -1.07526
10.71 -1.05468
10.72 -1.03376
10.73 -1.01313
10.74 -0.993504
10.75 -0.975307
10.76 -0.958904
10.77 -0.944598
10.78 -0.93288
10.79 -0.923817
10.8 -0.917349
10.81 -0.913497
10.82 -0.912406
10.83 -0.914062
10.84 -0.918127
10.85 -0.924487
10.86 -0.933084
10.87 -0.94397
10.88 -0.956743
10.89 -0.971285
10.9 -0.987482
10.91 -1.00545
10.92 -1.02483
10.93 -1.04551
10.94 -1.06738
10.95 -1.09044
10.96 -1.11444
10.97 -1.13918
10.98 -1.16451
10.99 -1.19025
11 -1.21614
11.01 -1.24194
11.02 -1.2674
11.03 -1.29222
11.04 -1.31604
11.05 -1.33866
11.06 -1.35981
11.07 -1.3792
11.08 -1.39624
11.09 -1.41096
11.1 -1.4231
11.11 -1.43242
11.12 -1.43822
11.13 -1.44055
11.14 -1.43925
11.15 -1.43405
11.16 -1.42423
11.17 -1.40958
11.18 -1.39004
11.19 -1.36525
11.2 -1.33447
11.21 -1.29702
11.22 -1.25305
11.23 -1.20216
11.24 -1.14374
11.25 -1.07658
11.26 -1.00135
11.27 -0.917829
11.28 -0.825866
11.29 -0.724151
11.3 -0.614035
11.31 -0.495873
11.32 -0.370107
11.33 -0.236632
11.34 -0.0969045
11.35 0.047746
11.36 0.196128
11.37 0.346959
11.38 0.498418
11.39 0.6487
11.4 0.796087
11.41 0.938528
11.42 1.07346
11.43 1.19974
11.44 1.31574
11.45 1.41981
11.46 1.50846
11.47 1.58245
11.48 1.64087
11.49 1.68307
11.5 1.70645
11.51 1.71266
11.52 1.7024
11.53 1.67617
11.54 1.63335
11.55 1.5756
11.56 1.50512
11.57 1.42328
11.58 1.33107
11.59 1.23004
11.6 1.12275
11.61 1.01078
11.62 0.895661
11.63 0.778889
11.64 0.662155
11.65 0.546637
11.66 0.43336
11.67 0.323763
11.68 0.218181
11.69 0.117074
11.7 0.0208002
11.71 -0.0698251
11.72 -0.154996
11.73 -0.234941
11.74 -0.309693
11.75 -0.378928
11.76 -0.442674
11.77 -0.501403
11.78 -0.555115
11.79 -0.603548
11.8 -0.646139
11.81 -0.683307
11.82 -0.714796
11.83 -0.740279
11.84 -0.758385
11.85 -0.7697
11.86 -0.773863
11.87 -0.770539
11.88 -0.758417
11.89 -0.738012
11.9 -0.70949
11.91 -0.672876
11.92 -0.627617
11.93 -0.574275
11.94 -0.513872
11.95 -0.44703
11.96 -0.374238
11.97 -0.296326
11.98 -0.214889
11.99 -0.131023
12 -0.0458819
12.01 0.039159
12.02 0.122779
12.03 0.203825
12.04 0.281202
12.05 0.353084
12.06 0.419063
12.07 0.478468
12.08 0.530681
12.09 0.574363
12.1 0.609591
12.11 0.63664
12.12 0.655516
12.13 0.665795
12.14 0.667666
12.15 0.662219
12.16 0.649908
12.17 0.631042
12.18 0.605762
12.19 0.575426
12.2 0.540617
12.21 0.501906
12.22 0.459389
12.23 0.414173
12.24 0.366729
12.25 0.317489
12.26 0.26672
12.27 0.214954
12.28 0.16256
12.29 0.109839
12.3 0.0571025
12.31 0.00468807
12.32 -0.0471202
12.33 -0.0980271
12.34 -0.147642
12.35 -0.195485
12.36 -0.241343
12.37 -0.284849
12.38 -0.32557
12.39 -0.362647
12.4 -0.396102
12.41 -0.425558
12.42 -0.450657
12.43 -0.470374
12.44 -0.484958
12.45 -0.494292
12.46 -0.498221
12.47 -0.496088
12.48 -0.488164
12.49 -0.474855
12.5 -0.456339
12.51 -0.432561
12.52 -0.403819
12.53 -0.370992
12.54 -0.334568
12.55 -0.295008
12.56 -0.252763
12.57 -0.20883
12.58 -0.163848
12.59 -0.118462
12.6 -0.0734453
12.61 -0.0294582
12.62 0.0129103
12.63 0.0531034
12.64 0.0902223
12.65 0.123949
12.66 0.153994
12.67 0.180007
12.68 0.201308
12.69 0.217651
12.7 0.229204
12.71 0.235852
12.72 0.237288
12.73 0.23318
12.74 0.224134
12.75 0.210241
12.76 0.191577
12.77 0.167728
12.78 0.139614
12.79 0.107494
12.8 0.0716652
12.81 0.0320455
12.82 -0.0105652
12.83 -0.0556845
12.84 -0.102884
12.85 -0.151823
12.86 -0.201872
12.87 -0.252443
12.88 -0.303029
12.89 -0.35305
12.9 -0.40186
12.91 -0.449014
12.92 -0.494023
12.93 -0.536327
12.94 -0.57509
12.95 -0.610274
12.96 -0.641517
12.97 -0.668498
12.98 -0.690219
12.99 -0.707101
13 -0.719028
13.01 -0.725905
13.02 -0.727098
13.03 -0.723001
13.04 -0.713923
13.05 -0.699998
13.06 -0.681049
13.07 -0.657359
13.08 -0.629579
13.09 -0.598025
13.1 -0.562916
13.11 -0.524483
13.12 -0.483528
13.13 -0.440486
13.14 -0.395797
13.15 -0.349836
13.16 -0.303312
13.17 -0.256712
13.18 -0.210522
13.19 -0.165415
13.2 -0.121846
13.21 -0.0802577
13.22 -0.0411025
13.23 -0.00513242
13.24 0.0272667
13.25 0.0559188
13.26 0.0804968
13.27 0.100439
13.28 0.115293
13.29 0.125343
13.3 0.130491
13.31 0.130587
13.32 0.125134
13.33 0.11494
13.34 0.10021
13.35 0.0812236
13.36 0.0578125
13.37 0.0310027
13.38 0.00134952
13.39 -0.0305785
13.4 -0.0642661
13.41 -0.0988145
13.42 -0.133428
13.43 -0.167357
13.44 -0.199656
13.45 -0.229368
13.46 -0.255847
13.47 -0.278324
13.48 -0.295827
13.49 -0.307069
13.5 -0.311975
13.51 -0.309921
13.52 -0.300308
13.53 -0.281332
13.54 -0.253786
13.55 -0.217336
13.56 -0.171733
13.57 -0.115608
13.58 -0.0498116
