# xPDFsuite Configuration #
# [PDF]
# wavelength = 0.56
# dataformat = twotheta
# inputfile = Simple Sum_1_CoFe2O4_water_220620_PDF_night_VCT_sticth.chi
# backgroundfile = BA_150_3-00001.chi
# mode = xray
# bgscale = 0.0
# composition = CoFe2O4
# outputtype = gr
# qmaxinst = 18.0
# qmin = 1.6
# qmax = 17.5
# rmax = 100.0
# rmin = 0.0
# rstep = 0.01
# rpoly = 0.9
#
#
#### start data
#S 1
#L r($\AA$)  G($\AA^{-2}$)
0 0
0.01 0.00290828
0.02 0.00572661
0.03 0.00834347
0.04 0.0106968
0.05 0.0126867
0.06 0.0142645
0.07 0.0153752
0.08 0.0159725
0.09 0.016066
0.1 0.0156069
0.11 0.014672
0.12 0.013212
0.13 0.0113494
0.14 0.00906326
0.15 0.00647236
0.16 0.00360219
0.17 0.000542466
0.18 -0.0026547
0.19 -0.00592476
0.2 -0.00921832
0.21 -0.012492
0.22 -0.0157214
0.23 -0.0188837
0.24 -0.0219875
0.25 -0.0250349
0.26 -0.0280593
0.27 -0.0310942
0.28 -0.0341818
0.29 -0.0373745
0.3 -0.0407174
0.31 -0.044255
0.32 -0.0480288
0.33 -0.0520454
0.34 -0.0563297
0.35 -0.0608309
0.36 -0.0655305
0.37 -0.0703228
0.38 -0.0751008
0.39 -0.0797222
0.4 -0.0839786
0.41 -0.087677
0.42 -0.0905453
0.43 -0.0923009
0.44 -0.0926857
0.45 -0.0912758
0.46 -0.0879355
0.47 -0.0820454
0.48 -0.0737081
0.49 -0.0620838
0.5 -0.0474931
0.51 -0.0292164
0.52 -0.00750437
0.53 0.0180401
0.54 0.0472626
0.55 0.0801598
0.56 0.116661
0.57 0.156352
0.58 0.199183
0.59 0.244407
0.6 0.291875
0.61 0.340689
0.62 0.390389
0.63 0.440149
0.64 0.489189
0.65 0.536737
0.66 0.581908
0.67 0.623836
0.68 0.661821
0.69 0.694753
0.7 0.722408
0.71 0.743305
0.72 0.757924
0.73 0.764401
0.74 0.763763
0.75 0.754573
0.76 0.737656
0.77 0.71238
0.78 0.679306
0.79 0.638652
0.8 0.590738
0.81 0.536535
0.82 0.47623
0.83 0.411315
0.84 0.342024
0.85 0.269995
0.86 0.195854
0.87 0.120952
0.88 0.046304
0.89 -0.0270101
0.9 -0.0979212
0.91 -0.16542
0.92 -0.228759
0.93 -0.286825
0.94 -0.3395
0.95 -0.385453
0.96 -0.425357
0.97 -0.457714
0.98 -0.483736
0.99 -0.502494
1 -0.515026
1.01 -0.52121
1.02 -0.521879
1.03 -0.517607
1.04 -0.509082
1.05 -0.497327
1.06 -0.483013
1.07 -0.467285
1.08 -0.450948
1.09 -0.434944
1.1 -0.420271
1.11 -0.407529
1.12 -0.397674
1.13 -0.391107
1.14 -0.388444
1.15 -0.390016
1.16 -0.395897
1.17 -0.40641
1.18 -0.421029
1.19 -0.440043
1.2 -0.462437
1.21 -0.488312
1.22 -0.516484
1.23 -0.546558
1.24 -0.577523
1.25 -0.6086
1.26 -0.638857
1.27 -0.667444
1.28 -0.693379
1.29 -0.716078
1.3 -0.73439
1.31 -0.748292
1.32 -0.756386
1.33 -0.75927
1.34 -0.755712
1.35 -0.746497
1.36 -0.731021
1.37 -0.709973
1.38 -0.683486
1.39 -0.652152
1.4 -0.616727
1.41 -0.577793
1.42 -0.53647
1.43 -0.493479
1.44 -0.449958
1.45 -0.40693
1.46 -0.365263
1.47 -0.326165
1.48 -0.290264
1.49 -0.258607
1.5 -0.231747
1.51 -0.210233
1.52 -0.194654
1.53 -0.184845
1.54 -0.181461
1.55 -0.18356
1.56 -0.191788
1.57 -0.204664
1.58 -0.222317
1.59 -0.243293
1.6 -0.266993
1.61 -0.292101
1.62 -0.317524
1.63 -0.341922
1.64 -0.364121
1.65 -0.382545
1.66 -0.396407
1.67 -0.403681
1.68 -0.404359
1.69 -0.395965
1.7 -0.379154
1.71 -0.351888
1.72 -0.314721
1.73 -0.266581
1.74 -0.207772
1.75 -0.138365
1.76 -0.0583841
1.77 0.0309793
1.78 0.129883
1.79 0.236248
1.8 0.350189
1.81 0.46926
1.82 0.592892
1.83 0.718999
1.84 0.846263
1.85 0.972928
1.86 1.09738
1.87 1.21788
1.88 1.33308
1.89 1.44096
1.9 1.54096
1.91 1.63047
1.92 1.71009
1.93 1.7767
1.94 1.83166
1.95 1.87254
1.96 1.90032
1.97 1.91381
1.98 1.91345
1.99 1.89938
2 1.87146
2.01 1.83106
2.02 1.7775
2.03 1.71318
2.04 1.63703
2.05 1.55191
2.06 1.45724
2.07 1.35531
2.08 1.24638
2.09 1.13205
2.1 1.01314
2.11 0.890795
2.12 0.766055
2.13 0.639801
2.14 0.512991
2.15 0.386464
2.16 0.26085
2.17 0.137075
2.18 0.0154052
2.19 -0.103313
2.2 -0.218933
2.21 -0.330865
2.22 -0.438917
2.23 -0.542854
2.24 -0.642316
2.25 -0.737471
2.26 -0.827713
2.27 -0.91362
2.28 -0.994297
2.29 -1.07059
2.3 -1.14168
2.31 -1.20824
2.32 -1.26977
2.33 -1.32664
2.34 -1.37873
2.35 -1.42607
2.36 -1.46892
2.37 -1.50704
2.38 -1.54101
2.39 -1.57038
2.4 -1.59599
2.41 -1.61731
2.42 -1.63523
2.43 -1.64948
2.44 -1.6607
2.45 -1.66895
2.46 -1.67467
2.47 -1.67814
2.48 -1.67964
2.49 -1.67961
2.5 -1.67821
2.51 -1.67588
2.52 -1.67272
2.53 -1.66907
2.54 -1.665
2.55 -1.66065
2.56 -1.65601
2.57 -1.65104
2.58 -1.64557
2.59 -1.63937
2.6 -1.63217
2.61 -1.62344
2.62 -1.6129
2.63 -1.59963
2.64 -1.58351
2.65 -1.56319
2.66 -1.53865
2.67 -1.50852
2.68 -1.4726
2.69 -1.42978
2.7 -1.37958
2.71 -1.32147
2.72 -1.25458
2.73 -1.17919
2.74 -1.09403
2.75 -1.00035
2.76 -0.896536
2.77 -0.784543
2.78 -0.663373
2.79 -0.534809
2.8 -0.398911
2.81 -0.257205
2.82 -0.110697
2.83 0.0391394
2.84 0.19072
2.85 0.34231
2.86 0.492279
2.87 0.638248
2.88 0.779097
2.89 0.911665
2.9 1.03541
2.91 1.14716
2.92 1.2463
2.93 1.33046
2.94 1.39858
2.95 1.44968
2.96 1.48204
2.97 1.49649
2.98 1.49057
2.99 1.46709
3 1.42296
3.01 1.36234
3.02 1.28338
3.03 1.1897
3.04 1.08145
3.05 0.961562
3.06 0.831879
3.07 0.694996
3.08 0.553712
3.09 0.410817
3.1 0.269146
3.11 0.132292
3.12 0.00222837
3.13 -0.116431
3.14 -0.222692
3.15 -0.312015
3.16 -0.383441
3.17 -0.43362
3.18 -0.461069
3.19 -0.464461
3.2 -0.441392
3.21 -0.393103
3.22 -0.316105
3.23 -0.214396
3.24 -0.0835056
3.25 0.0707749
3.26 0.251254
3.27 0.453081
3.28 0.676389
3.29 0.917456
3.3 1.17417
3.31 1.44352
3.32 1.72203
3.33 2.00676
3.34 2.29396
3.35 2.58006
3.36 2.86207
3.37 3.13539
3.38 3.39815
3.39 3.64559
3.4 3.8761
3.41 4.08594
3.42 4.27304
3.43 4.43563
3.44 4.57061
3.45 4.67885
3.46 4.7559
3.47 4.80556
3.48 4.82196
3.49 4.8109
3.5 4.76801
3.51 4.69793
3.52 4.59909
3.53 4.47459
3.54 4.32545
3.55 4.15347
3.56 3.96167
3.57 3.7509
3.58 3.52544
3.59 3.28571
3.6 3.03627
3.61 2.77799
3.62 2.51458
3.63 2.2478
3.64 1.98027
3.65 1.71406
3.66 1.45127
3.67 1.19356
3.68 0.942979
3.69 0.700248
3.7 0.467693
3.71 0.244744
3.72 0.0342455
3.73 -0.165432
3.74 -0.352033
3.75 -0.526967
3.76 -0.689131
3.77 -0.83944
3.78 -0.977963
3.79 -1.10506
3.8 -1.22182
3.81 -1.32809
3.82 -1.42571
3.83 -1.51414
3.84 -1.59558
3.85 -1.66954
3.86 -1.73788
3.87 -1.80061
3.88 -1.85892
3.89 -1.91319
3.9 -1.96409
3.91 -2.01215
3.92 -2.05768
3.93 -2.10116
3.94 -2.14263
3.95 -2.18251
3.96 -2.22057
3.97 -2.25711
3.98 -2.29181
3.99 -2.32477
4 -2.35565
4.01 -2.38434
4.02 -2.41057
4.03 -2.43406
4.04 -2.4547
4.05 -2.47198
4.06 -2.48607
4.07 -2.49624
4.08 -2.50297
4.09 -2.50546
4.1 -2.50428
4.11 -2.49892
4.12 -2.48976
4.13 -2.4767
4.14 -2.45996
4.15 -2.43978
4.16 -2.41624
4.17 -2.38987
4.18 -2.36067
4.19 -2.32933
4.2 -2.29581
4.21 -2.2608
4.22 -2.22441
4.23 -2.18711
4.24 -2.14912
4.25 -2.11073
4.26 -2.07214
4.27 -2.03352
4.28 -1.99498
4.29 -1.95656
4.3 -1.91823
4.31 -1.87992
4.32 -1.84148
4.33 -1.80267
4.34 -1.76329
4.35 -1.72295
4.36 -1.68138
4.37 -1.63816
4.38 -1.5929
4.39 -1.54529
4.4 -1.49478
4.41 -1.4413
4.42 -1.38414
4.43 -1.3236
4.44 -1.25878
4.45 -1.19031
4.46 -1.11756
4.47 -1.04111
4.48 -0.960803
4.49 -0.877142
4.5 -0.790464
4.51 -0.70127
4.52 -0.610267
4.53 -0.518085
4.54 -0.425586
4.55 -0.333713
4.56 -0.243224
4.57 -0.155452
4.58 -0.0709783
4.59 0.00874884
4.6 0.0831152
4.61 0.150925
4.62 0.21135
4.63 0.263795
4.64 0.307066
4.65 0.341454
4.66 0.365319
4.67 0.379991
4.68 0.383444
4.69 0.377693
4.7 0.361459
4.71 0.336365
4.72 0.302242
4.73 0.260349
4.74 0.211479
4.75 0.156664
4.76 0.0973468
4.77 0.03456
4.78 -0.0300361
4.79 -0.0951297
4.8 -0.159305
4.81 -0.22082
4.82 -0.278688
4.83 -0.331089
4.84 -0.377199
4.85 -0.415618
4.86 -0.445421
4.87 -0.466045
4.88 -0.476281
4.89 -0.476671
4.9 -0.465649
4.91 -0.444913
4.92 -0.41267
4.93 -0.37127
4.94 -0.31981
4.95 -0.260178
4.96 -0.192593
4.97 -0.118538
4.98 -0.0390596
4.99 0.044605
5 0.131008
5.01 0.218937
5.02 0.307025
5.03 0.393855
5.04 0.478532
5.05 0.559464
5.06 0.636235
5.07 0.707495
5.08 0.773009
5.09 0.832041
5.1 0.88436
5.11 0.930035
5.12 0.968766
5.13 1.00143
5.14 1.02768
5.15 1.04902
5.16 1.06522
5.17 1.07794
5.18 1.08753
5.19 1.09526
5.2 1.10194
5.21 1.10857
5.22 1.11599
5.23 1.12509
5.24 1.1364
5.25 1.15074
5.26 1.16808
5.27 1.18919
5.28 1.21346
5.29 1.24129
5.3 1.2718
5.31 1.30471
5.32 1.33906
5.33 1.37397
5.34 1.40828
5.35 1.44083
5.36 1.47008
5.37 1.49506
5.38 1.51358
5.39 1.52535
5.4 1.52746
5.41 1.52032
5.42 1.50126
5.43 1.47058
5.44 1.42656
5.45 1.36921
5.46 1.29813
5.47 1.21294
5.48 1.11472
5.49 1.00279
5.5 0.879603
5.51 0.744411
5.52 0.600474
5.53 0.447929
5.54 0.289765
5.55 0.127375
5.56 -0.0366851
5.57 -0.20026
5.58 -0.360843
5.59 -0.516297
5.6 -0.663724
5.61 -0.801832
5.62 -0.926913
5.63 -1.03919
5.64 -1.13408
5.65 -1.21305
5.66 -1.27232
5.67 -1.31309
5.68 -1.33331
5.69 -1.33359
5.7 -1.31392
5.71 -1.27427
5.72 -1.21661
5.73 -1.14034
5.74 -1.0491
5.75 -0.942052
5.76 -0.823584
5.77 -0.693832
5.78 -0.556512
5.79 -0.413089
5.8 -0.266452
5.81 -0.118776
5.82 0.0274381
5.83 0.170135
5.84 0.306762
5.85 0.436144
5.86 0.555302
5.87 0.664453
5.88 0.760183
5.89 0.843797
5.9 0.912713
5.91 0.968095
5.92 1.00881
5.93 1.03566
5.94 1.04903
5.95 1.04928
5.96 1.03811
5.97 1.01558
5.98 0.984286
5.99 0.944179
6 0.898085
6.01 0.846516
6.02 0.791678
6.03 0.734678
6.04 0.677107
6.05 0.620204
6.06 0.565221
6.07 0.513056
6.08 0.464844
6.09 0.420813
6.1 0.382117
6.11 0.348207
6.12 0.320171
6.13 0.29698
6.14 0.279133
6.15 0.265684
6.16 0.256445
6.17 0.25059
6.18 0.247442
6.19 0.246243
6.2 0.246118
6.21 0.246277
6.22 0.245975
6.23 0.244283
6.24 0.240812
6.25 0.234615
6.26 0.225589
6.27 0.213058
6.28 0.197033
6.29 0.177296
6.3 0.153903
6.31 0.12714
6.32 0.0971035
6.33 0.0644973
6.34 0.0295291
6.35 -0.00689088
6.36 -0.0442984
6.37 -0.0818405
6.38 -0.118756
6.39 -0.154336
6.4 -0.187735
6.41 -0.218266
6.42 -0.245281
6.43 -0.267984
6.44 -0.286169
6.45 -0.298831
6.46 -0.306375
6.47 -0.30753
6.48 -0.303221
6.49 -0.292393
6.5 -0.275937
6.51 -0.253359
6.52 -0.225299
6.53 -0.191847
6.54 -0.153386
6.55 -0.110476
6.56 -0.0632918
6.57 -0.0126962
6.58 0.041271
6.59 0.0976453
6.6 0.156376
6.61 0.216645
6.62 0.278238
6.63 0.340617
6.64 0.403476
6.65 0.466449
6.66 0.529254
6.67 0.591592
6.68 0.653278
6.69 0.713994
6.7 0.773684
6.71 0.831921
6.72 0.888759
6.73 0.943706
6.74 0.996766
6.75 1.04745
6.76 1.0956
6.77 1.14077
6.78 1.18253
6.79 1.22058
6.8 1.25408
6.81 1.28301
6.82 1.306
6.83 1.32342
6.84 1.33342
6.85 1.33654
6.86 1.3311
6.87 1.31727
6.88 1.29389
6.89 1.26068
6.9 1.21722
6.91 1.1627
6.92 1.09764
6.93 1.02066
6.94 0.933343
6.95 0.833793
6.96 0.724321
6.97 0.603578
6.98 0.473554
6.99 0.333978
7 0.186361
7.01 0.0314282
7.02 -0.12962
7.03 -0.295369
7.04 -0.464676
7.05 -0.635867
7.06 -0.807544
7.07 -0.978247
7.08 -1.14608
7.09 -1.31004
7.1 -1.46806
7.11 -1.61927
7.12 -1.76196
7.13 -1.8951
7.14 -2.01777
7.15 -2.12855
7.16 -2.22764
7.17 -2.31308
7.18 -2.3864
7.19 -2.44501
7.2 -2.49143
7.21 -2.52368
7.22 -2.54389
7.23 -2.55133
7.24 -2.54751
7.25 -2.53289
7.26 -2.50839
7.27 -2.47539
7.28 -2.43442
7.29 -2.38738
7.3 -2.33464
7.31 -2.27815
7.32 -2.21844
7.33 -2.15708
7.34 -2.09488
7.35 -2.03289
7.36 -1.97197
7.37 -1.91288
7.38 -1.85619
7.39 -1.80256
7.4 -1.75209
7.41 -1.70543
7.42 -1.66212
7.43 -1.62283
7.44 -1.58672
7.45 -1.55409
7.46 -1.52416
7.47 -1.49676
7.48 -1.47118
7.49 -1.44692
7.5 -1.4233
7.51 -1.39968
7.52 -1.37528
7.53 -1.34958
7.54 -1.32157
7.55 -1.29102
7.56 -1.25671
7.57 -1.21864
7.58 -1.17571
7.59 -1.12783
7.6 -1.07428
7.61 -1.01478
7.62 -0.949077
7.63 -0.876625
7.64 -0.797765
7.65 -0.711588
7.66 -0.619069
7.67 -0.518937
7.68 -0.412565
7.69 -0.298991
7.7 -0.179284
7.71 -0.0530827
7.72 0.078905
7.73 0.216464
7.74 0.359176
7.75 0.50635
7.76 0.657734
7.77 0.812303
7.78 0.969801
7.79 1.12909
7.8 1.28963
7.81 1.4504
7.82 1.61049
7.83 1.76899
7.84 1.92479
7.85 2.07684
7.86 2.22414
7.87 2.36524
7.88 2.49959
7.89 2.62507
7.9 2.74193
7.91 2.84714
7.92 2.94167
7.93 3.02258
7.94 3.09053
7.95 3.14337
7.96 3.18114
7.97 3.20285
7.98 3.20772
7.99 3.19618
8 3.16656
8.01 3.12082
8.02 3.05643
8.03 2.97662
8.04 2.87886
8.05 2.76647
8.06 2.63824
8.07 2.49655
8.08 2.3417
8.09 2.17534
8.1 1.99892
8.11 1.81362
8.12 1.6216
8.13 1.42392
8.14 1.2229
8.15 1.01983
8.16 0.816705
8.17 0.615277
8.18 0.416974
8.19 0.223661
8.2 0.0365802
8.21 -0.142846
8.22 -0.313216
8.23 -0.473992
8.24 -0.623357
8.25 -0.76196
8.26 -0.887414
8.27 -1.0015
8.28 -1.10181
8.29 -1.19039
8.3 -1.26583
8.31 -1.32957
8.32 -1.38141
8.33 -1.42219
8.34 -1.45274
8.35 -1.47341
8.36 -1.48577
8.37 -1.48981
8.38 -1.48755
8.39 -1.47874
8.4 -1.4654
8.41 -1.44767
8.42 -1.42689
8.43 -1.40355
8.44 -1.37852
8.45 -1.35236
8.46 -1.32562
8.47 -1.29871
8.48 -1.27198
8.49 -1.24562
8.5 -1.21982
8.51 -1.19452
8.52 -1.16974
8.53 -1.14527
8.54 -1.12093
8.55 -1.09644
8.56 -1.07145
8.57 -1.04559
8.58 -1.01851
8.59 -0.989705
8.6 -0.958936
8.61 -0.925499
8.62 -0.889438
8.63 -0.849782
8.64 -0.806842
8.65 -0.759737
8.66 -0.708691
8.67 -0.653128
8.68 -0.593104
8.69 -0.528429
8.7 -0.458945
8.71 -0.384882
8.72 -0.305852
8.73 -0.222499
8.74 -0.134216
8.75 -0.0419417
8.76 0.0548749
8.77 0.15535
8.78 0.259685
8.79 0.367248
8.8 0.477874
8.81 0.591108
8.82 0.706507
8.83 0.823688
8.84 0.942045
8.85 1.06113
8.86 1.18031
8.87 1.2989
8.88 1.41637
8.89 1.53179
8.9 1.64463
8.91 1.75387
8.92 1.85881
8.93 1.95857
8.94 2.05207
8.95 2.1388
8.96 2.21711
8.97 2.28716
8.98 2.3465
8.99 2.39604
9 2.433
9.01 2.4584
9.02 2.47003
9.03 2.46835
9.04 2.45214
9.05 2.42119
9.06 2.37551
9.07 2.31413
9.08 2.23841
9.09 2.14666
9.1 2.04156
9.11 1.9209
9.12 1.78801
9.13 1.64172
9.14 1.48456
9.15 1.31673
9.16 1.14013
9.17 0.956019
9.18 0.765937
9.19 0.571743
9.2 0.374959
9.21 0.177483
9.22 -0.0187876
9.23 -0.212425
9.24 -0.401054
9.25 -0.583769
9.26 -0.758231
9.27 -0.923613
9.28 -1.0782
9.29 -1.2209
9.3 -1.35108
9.31 -1.46716
9.32 -1.56988
9.33 -1.65702
9.34 -1.73078
9.35 -1.78844
9.36 -1.83301
9.37 -1.86278
9.38 -1.88003
9.39 -1.88449
9.4 -1.87773
9.41 -1.86066
9.42 -1.83431
9.43 -1.80035
9.44 -1.7595
9.45 -1.71376
9.46 -1.66375
9.47 -1.61133
9.48 -1.55733
9.49 -1.50308
9.5 -1.44955
9.51 -1.3976
9.52 -1.34805
9.53 -1.30151
9.54 -1.25835
9.55 -1.21911
9.56 -1.18358
9.57 -1.15229
9.58 -1.12449
9.59 -1.10062
9.6 -1.07968
9.61 -1.06169
9.62 -1.0458
9.63 -1.03162
9.64 -1.01844
9.65 -1.00568
9.66 -0.992697
9.67 -0.978974
9.68 -0.963854
9.69 -0.947094
9.7 -0.927974
9.71 -0.906615
9.72 -0.882399
9.73 -0.855641
9.74 -0.82606
9.75 -0.794005
9.76 -0.759593
9.77 -0.723192
9.78 -0.68524
9.79 -0.646168
9.8 -0.606567
9.81 -0.567008
9.82 -0.52802
9.83 -0.490392
9.84 -0.45445
9.85 -0.421029
9.86 -0.390357
9.87 -0.36308
9.88 -0.339417
9.89 -0.31964
9.9 -0.304019
9.91 -0.292344
9.92 -0.284946
9.93 -0.281135
9.94 -0.281248
9.95 -0.28429
9.96 -0.290305
9.97 -0.29836
9.98 -0.308087
9.99 -0.318699
10 -0.329575
10.01 -0.339984
10.02 -0.349307
10.03 -0.356763
10.04 -0.361984
10.05 -0.364057
10.06 -0.363053
10.07 -0.357944
10.08 -0.349175
10.09 -0.33603
10.1 -0.318958
10.11 -0.297763
10.12 -0.272858
10.13 -0.244564
10.14 -0.213287
10.15 -0.179739
10.16 -0.144415
10.17 -0.10819
10.18 -0.0717806
10.19 -0.0359661
10.2 -0.0017349
10.21 0.030339
10.22 0.0592251
10.23 0.084423
10.24 0.105169
10.25 0.120916
10.26 0.131425
10.27 0.136031
10.28 0.135178
10.29 0.128095
10.3 0.115888
10.31 0.0978964
10.32 0.075542
10.33 0.0488243
10.34 0.0190009
10.35 -0.0132366
10.36 -0.0466835
10.37 -0.080238
10.38 -0.112553
10.39 -0.142513
10.4 -0.168382
10.41 -0.189488
10.42 -0.203451
10.43 -0.210285
10.44 -0.207404
10.45 -0.195034
10.46 -0.171111
10.47 -0.135611
10.48 -0.0874601
10.49 -0.0262078
10.5 0.0479674
10.51 0.136013
10.52 0.236413
10.53 0.350545
10.54 0.475762
10.55 0.6134
10.56 0.760478
10.57 0.917208
10.58 1.08122
10.59 1.25156
10.6 1.42624
10.61 1.60358
10.62 1.78164
10.63 1.95861
10.64 2.13219
10.65 2.30109
10.66 2.46222
10.67 2.61517
10.68 2.75651
10.69 2.88612
10.7 3.00112
10.71 3.10106
10.72 3.18422
10.73 3.24948
10.74 3.29668
10.75 3.32383
10.76 3.33256
10.77 3.3199
10.78 3.28915
10.79 3.23693
10.8 3.16708
10.81 3.0776
10.82 2.97124
10.83 2.84777
10.84 2.70897
10.85 2.55608
10.86 2.39013
10.87 2.2134
10.88 2.0265
10.89 1.83225
10.9 1.63117
10.91 1.42599
10.92 1.2178
10.93 1.00863
10.94 0.800038
10.95 0.593601
10.96 0.390857
10.97 0.19333
10.98 0.00206666
10.99 -0.181138
11 -0.356113
11.01 -0.520523
11.02 -0.675241
11.03 -0.817534
11.04 -0.948821
11.05 -1.06699
11.06 -1.17301
11.07 -1.26583
11.08 -1.3458
11.09 -1.41299
11.1 -1.4671
11.11 -1.50927
11.12 -1.53855
11.13 -1.55705
11.14 -1.56325
11.15 -1.55977
11.16 -1.5455
11.17 -1.52248
11.18 -1.49047
11.19 -1.45079
11.2 -1.40391
11.21 -1.35065
11.22 -1.29196
11.23 -1.22829
11.24 -1.16085
11.25 -1.08992
11.26 -1.01672
11.27 -0.941603
11.28 -0.865549
11.29 -0.789119
11.3 -0.713011
11.31 -0.637863
11.32 -0.564274
11.33 -0.492773
11.34 -0.424019
11.35 -0.358272
11.36 -0.296391
11.37 -0.238229
11.38 -0.184953
11.39 -0.136058
11.4 -0.0926563
11.41 -0.054314
11.42 -0.0217924
11.43 0.0050931
11.44 0.0260433
11.45 0.0409403
11.46 0.0499913
11.47 0.0527583
11.48 0.0499601
11.49 0.0408571
11.5 0.0265803
11.51 0.00633245
11.52 -0.0187145
11.53 -0.0489517
11.54 -0.0835457
11.55 -0.122414
11.56 -0.164996
11.57 -0.210845
11.58 -0.25958
11.59 -0.310531
11.6 -0.363386
11.61 -0.417417
11.62 -0.472259
11.63 -0.527287
11.64 -0.581996
11.65 -0.635938
11.66 -0.688564
11.67 -0.739498
11.68 -0.788302
11.69 -0.834572
11.7 -0.878113
11.71 -0.918409
11.72 -0.955605
11.73 -0.98902
11.74 -1.01914
11.75 -1.04524
11.76 -1.06792
11.77 -1.08673
11.78 -1.10208
11.79 -1.11387
11.8 -1.12233
11.81 -1.12764
11.82 -1.12988
11.83 -1.12944
11.84 -1.12622
11.85 -1.12078
11.86 -1.11287
11.87 -1.10305
11.88 -1.09111
11.89 -1.07739
11.9 -1.06177
11.91 -1.04436
11.92 -1.02506
11.93 -1.00376
11.94 -0.980437
11.95 -0.954707
11.96 -0.926634
11.97 -0.89555
11.98 -0.861668
11.99 -0.824091
12 -0.783071
12.01 -0.737784
12.02 -0.688296
12.03 -0.634052
12.04 -0.574893
12.05 -0.510661
12.06 -0.44095
12.07 -0.366101
12.08 -0.285479
12.09 -0.199967
12.1 -0.108776
12.11 -0.0131432
12.12 0.0873028
12.13 0.191483
12.14 0.299157
12.15 0.409373
12.16 0.521395
12.17 0.634243
12.18 0.746931
12.19 0.858226
12.2 0.967229
12.21 1.07219
12.22 1.1726
12.23 1.26619
12.24 1.35274
12.25 1.43002
12.26 1.49762
12.27 1.55385
12.28 1.59785
12.29 1.62886
12.3 1.64535
12.31 1.64784
12.32 1.63399
12.33 1.60578
12.34 1.56003
12.35 1.49974
12.36 1.4225
12.37 1.33068
12.38 1.22337
12.39 1.10216
12.4 0.967572
12.41 0.820565
12.42 0.662833
12.43 0.494934
12.44 0.319322
12.45 0.136498
12.46 -0.0508897
12.47 -0.241853
12.48 -0.434172
12.49 -0.626225
12.5 -0.816245
12.51 -1.00241
12.52 -1.18302
12.53 -1.3566
12.54 -1.52112
12.55 -1.676
12.56 -1.81855
12.57 -1.94947
12.58 -2.06516
12.59 -2.1674
12.6 -2.25307
12.61 -2.32354
12.62 -2.37694
12.63 -2.41392
12.64 -2.43404
12.65 -2.43714
12.66 -2.42426
12.67 -2.39439
12.68 -2.34993
12.69 -2.28915
12.7 -2.21535
12.71 -2.12695
12.72 -2.02699
12.73 -1.91496
12.74 -1.793
12.75 -1.66165
12.76 -1.52233
12.77 -1.37631
12.78 -1.22456
12.79 -1.06868
12.8 -0.909498
12.81 -0.748575
12.82 -0.586879
12.83 -0.425617
12.84 -0.266008
12.85 -0.108902
12.86 0.0444798
12.87 0.193364
12.88 0.336838
12.89 0.473954
12.9 0.604367
12.91 0.726755
12.92 0.841535
12.93 0.946868
12.94 1.0439
12.95 1.13067
12.96 1.20843
12.97 1.27583
12.98 1.33365
12.99 1.38134
13 1.41915
13.01 1.44741
13.02 1.46581
13.03 1.47547
13.04 1.47563
13.05 1.46805
13.06 1.45163
13.07 1.4284
13.08 1.39777
13.09 1.36118
13.1 1.31873
13.11 1.27139
13.12 1.21975
13.13 1.16449
13.14 1.10647
13.15 1.04622
13.16 0.984669
13.17 0.922397
13.18 0.860167
13.19 0.798736
13.2 0.738633
13.21 0.680682
13.22 0.625327
13.23 0.573267
13.24 0.525024
13.25 0.480994
13.26 0.441918
13.27 0.407747
13.28 0.379552
13.29 0.356741
13.3 0.340768
13.31 0.330679
13.32 0.327674
13.33 0.331098
13.34 0.341623
13.35 0.358957
13.36 0.3832
13.37 0.414439
13.38 0.452199
13.39 0.496923
13.4 0.547596
13.41 0.604955
13.42 0.667626
13.43 0.736217
13.44 0.80947
13.45 0.887489
13.46 0.969341
13.47 1.05464
13.48 1.14263
13.49 1.2326
13.5 1.32383
13.51 1.41546
13.52 1.50659
13.53 1.59649
13.54 1.68387
13.55 1.76825
13.56 1.84813
13.57 1.92304
13.58 1.99158
13.59 2.05307
13.6 2.10655
13.61 2.15088
13.62 2.18583
13.63 2.20968
13.64 2.22317
13.65 2.22385
13.66 2.21339
13.67 2.18931
13.68 2.15335
13.69 2.10392
13.7 2.04218
13.71 1.96775
13.72 1.88118
13.73 1.78325
13.74 1.67403
13.75 1.55529
